9999
9999
9999
9999
9999
9999
9999
9999
9999
9999
10
9999
9999
9999
9999
9999
9999
9999
9999
9999
9999
9999
9999
23
9999
9999
9999
9999
9999
9999
9999
9999
32
33
9999
9999
9999
9999
9999
9999
9999
9999
9999
9999
9999
45
9999
9999
9999
9999
9999
9999
9999
9999
9999
9999
9999
9999
9999
9999
9999
9999
62
9999
9999
9999
9999
9999
9999
9999
9999
9999
9999
9999
9999
9999
9999
9999
9999
9999
9999
9999
9999
9999
9999
9999
9999
9999
88
89
9999
9999
9999
9999
9999
9999
9999
9999
9999
9999
9999
9999
9999
9999
9999
9999
9999
107
9999
9999
9999
111
9999
113
9999
9999
116
9999
9999
9999
120
9999
122
123
9999
9999
9999
9999
9999
9999
130
9999
9999
133
134
9999
136
9999
9999
9999
9999
9999
9999
9999
9999
9999
146
147
9999
9999
9999
9999
152
153
9999
9999
9999
9999
9999
9999
9999
9999
9999
9999
9999
9999
166
9999
9999
9999
9999
9999
9999
9999
174
9999
9999
177
9999
9999
9999
9999
9999
9999
9999
9999
186
9999
9999
9999
190
191
9999
9999
9999
9999
9999
9999
9999
9999
9999
9999
9999
9999
9999
205
9999
9999
9999
9999
210
9999
9999
9999
9999
9999
9999
9999
9999
219
220
9999
9999
9999
9999
9999
9999
9999
9999
9999
9999
9999
9999
9999
9999
9999
9999
9999
9999
9999
9999
9999
9999
9999
9999
245
9999
9999
9999
9999
9999
9999
9999
9999
9999
9999
9999
9999
9999
9999
9999
9999
9999
9999
9999
9999
9999
9999
9999
9999
9999
9999
9999
9999
9999
9999
9999
277
9999
9999
9999
9999
9999
283
9999
9999
286
287
288
289
9999
9999
292
9999
9999
9999
9999
9999
298
9999
9999
9999
9999
9999
9999
9999
9999
9999
9999
9999
9999
311
9999
9999
9999
9999
316
317
9999
9999
9999
9999
322
323
9999
9999
9999
9999
9999
9999
9999
9999
9999
9999
9999
9999
9999
9999
9999
9999
9999
9999
342
9999
344
9999
9999
9999
9999
9999
9999
9999
9999
9999
9999
9999
9999
9999
9999
9999
9999
361
9999
9999
9999
9999
9999
9999
9999
9999
9999
9999
9999
9999
9999
375
376
377
9999
9999
9999
9999
9999
383
384
385
9999
9999
9999
9999
9999
9999
392
393
9999
9999
9999
9999
9999
9999
9999
9999
9999
9999
9999
9999
9999
407
9999
9999
9999
411
412
9999
9999
9999
9999
9999
9999
9999
9999
9999
9999
9999
9999
9999
9999
9999
9999
9999
430
9999
9999
9999
9999
9999
436
437
438
9999
9999
9999
9999
443
444
9999
9999
9999
9999
9999
9999
451
9999
9999
9999
9999
9999
9999
9999
9999
9999
9999
9999
9999
9999
9999
9999
9999
468
469
9999
9999
9999
9999
474
475
9999
477
9999
9999
480
9999
482
9999
9999
9999
486
487
9999
9999
9999
9999
9999
9999
9999
9999
9999
9999
9999
9999
9999
9999
502
9999
9999
9999
506
9999
9999
9999
510
9999
512
9999
514
9999
9999
9999
518
9999
9999
9999
9999
9999
9999
9999
9999
9999
9999
9999
9999
9999
9999
533
9999
9999
9999
9999
9999
9999
9999
9999
542
9999
544
9999
9999
9999
9999
9999
9999
9999
9999
9999
9999
9999
556
9999
9999
9999
9999
9999
9999
9999
9999
9999
9999
9999
9999
9999
570
9999
9999
573
9999
9999
9999
9999
9999
579
9999
9999
9999
9999
584
9999
586
587
9999
9999
9999
9999
9999
9999
9999
9999
9999
9999
9999
9999
9999
9999
602
9999
9999
9999
9999
9999
9999
9999
9999
9999
9999
9999
614
9999
9999
9999
9999
9999
9999
9999
9999
9999
9999
9999
9999
9999
9999
9999
9999
9999
9999
9999
9999
9999
9999
9999
9999
9999
9999
9999
9999
9999
9999
9999
9999
9999
648
9999
650
9999
9999
9999
9999
9999
9999
9999
9999
9999
9999
9999
9999
9999
9999
9999
9999
9999
9999
9999
9999
9999
9999
9999
9999
9999
9999
677
9999
9999
680
9999
9999
9999
9999
9999
9999
9999
9999
9999
9999
9999
9999
9999
9999
9999
9999
9999
9999
9999
9999
9999
9999
9999
9999
9999
9999
9999
9999
709
9999
9999
9999
9999
9999
9999
9999
9999
9999
9999
9999
9999
9999
9999
9999
9999
9999
9999
9999
9999
9999
9999
9999
9999
9999
9999
9999
9999
9999
9999
740
741
742
9999
9999
9999
746
9999
9999
9999
9999
9999
9999
9999
9999
9999
9999
9999
9999
9999
9999
9999
9999
9999
9999
9999
9999
9999
9999
9999
9999
9999
9999
9999
9999
775
776
9999
9999
9999
9999
9999
9999
9999
9999
9999
9999
9999
788
9999
9999
9999
9999
9999
9999
9999
9999
9999
9999
9999
9999
9999
9999
9999
9999
9999
9999
807
9999
9999
810
9999
9999
9999
9999
9999
9999
9999
9999
9999
9999
9999
9999
9999
9999
9999
9999
9999
9999
9999
9999
9999
9999
9999
9999
9999
9999
9999
9999
9999
9999
9999
9999
9999
9999
9999
9999
9999
9999
9999
9999
9999
9999
9999
9999
9999
9999
9999
9999
9999
9999
9999
9999
9999
9999
9999
9999
9999
9999
9999
9999
9999
872
9999
9999
9999
9999
9999
9999
9999
9999
9999
9999
9999
9999
9999
9999
9999
9999
9999
9999
9999
9999
9999
9999
9999
9999
9999
9999
9999
9999
9999
9999
9999
9999
9999
9999
9999
9999
9999
9999
9999
9999
9999
9999
9999
9999
9999
9999
9999
9999
9999
9999
9999
9999
9999
9999
9999
9999
9999
9999
9999
9999
9999
9999
9999
9999
9999
9999
9999
9999
9999
9999
9999
9999
9999
9999
9999
9999
9999
9999
9999
9999
9999
9999
9999
9999
9999
9999
9999
9999
9999
9999
9999
9999
9999
9999
9999
9999
9999
9999
9999
9999
9999
9999
9999
9999
9999
9999
9999
9999
9999
9999
9999
9999
9999
9999
9999
9999
9999
9999
9999
9999
9999
9999
9999
9999
9999
9999
9999
9999
9999
9999
9999
9999
9999
9999
9999
9999
9999
9999
9999
9999
9999
9999
9999
9999
9999
9999
9999
9999
9999
9999
9999
